Profundidade [m]	Paleobatimetria [m]
2424.99	991.3803186
2425.19	991.389321
2425.39	991.4004418
2425.59	991.4115626
2425.79	991.4226835
2425.99	991.4338043
2426.19	991.4449251
2426.39	991.456046
2426.59	991.4671668
2426.79	991.4782877
2426.99	991.4894085
2427.19	991.5005293
2427.39	991.5116502
2427.59	991.522771
2427.79	991.5338919
2427.99	991.5450127
2428.19	991.5561335
2428.39	991.5672544
2428.59	991.5783752
2428.79	991.589496
2428.99	991.6006169
2429.19	991.6117377
2429.39	991.6228586
2429.59	991.6339794
2429.79	991.6451002
2429.99	991.6562211
2430.19	991.6673419
2430.39	991.6784627
2430.59	991.6895836
2430.79	991.7007044
2430.99	991.7118253
2431.19	991.7229461
2431.39	991.7340669
2431.59	991.7451878
2431.79	991.7563086
2431.99	991.7674295
2432.19	991.7785503
2432.39	991.7896711
2432.59	991.800792
2432.79	991.8119128
2432.99	991.8230336
2433.19	991.8341545
2433.39	991.8452753
2433.59	991.8563962
2433.79	991.867517
2433.99	991.8786378
2434.19	991.8897587
2434.39	991.9008795
2434.59	991.9120003
2434.79	991.9231212
2434.99	991.934242
2435.19	991.9453629
2435.39	991.9564837
2435.59	991.9676045
2435.79	991.9787254
2435.99	991.9898462
2436.19	992.0009671
2436.39	992.0120879
2436.59	992.0232087
2436.79	992.0343296
2436.99	992.0454504
2437.19	992.0565712
2437.39	992.0676921
2437.59	992.0788129
2437.79	992.0899338
2437.99	992.1010546
2438.19	992.1121754
2438.39	992.1232963
2438.59	992.1344171
2438.79	992.1455379
2438.99	992.1566588
2439.19	992.1677796
2439.39	992.1789005
2439.59	992.1900213
2439.79	992.2011421
2439.99	992.212263
2440.19	992.2233838
2440.39	992.2345047
2440.59	992.2456255
2440.79	992.2567463
2440.99	992.2678672
2441.19	992.278988
2441.39	992.2901088
2441.59	992.3012297
2441.79	992.3123505
2441.99	992.3234714
2442.19	992.3345922
2442.39	992.345713
2442.59	992.3568339
2442.79	992.3679547
2442.99	992.3790755
2443.19	992.3901964
2443.39	992.4013172
2443.59	992.4124381
2443.79	992.4235589
2443.99	992.4346797
2444.19	992.4458006
2444.39	992.4569214
2444.59	992.4680423
2444.79	992.4791631
2444.99	992.4902839
2445.19	992.5014048
2445.39	992.5125256
2445.59	992.5236464
2445.79	992.5347673
2445.99	992.5458881
2446.19	992.557009
2446.39	992.5681298
2446.59	992.5792506
2446.79	992.5903715
2446.99	992.6014923
2447.19	992.6126132
2447.39	992.623734
2447.59	992.6348548
2447.79	992.6459757
2447.99	992.6570965
2448.19	992.6682173
2448.39	992.6793382
2448.59	992.690459
2448.79	992.7015799
2448.99	992.7127007
2449.19	992.7238215
2449.39	992.7349424
2449.59	992.7460632
2449.79	992.757184
2449.99	992.7683049
2450.19	992.7794257
2450.39	992.7905466
2450.59	992.8016674
2450.79	992.8127882
2450.99	992.8239091
2451.19	992.8350299
2451.39	992.8461508
2451.59	992.8572716
2451.79	992.8683924
2451.99	992.8795133
2452.19	992.8906341
2452.39	992.9017549
2452.59	992.9128758
2452.79	992.9239966
2452.99	992.9351175
2453.19	992.9462383
2453.39	992.9573591
2453.59	992.96848
2453.79	992.9796008
2453.99	992.9907216
2454.19	993.0018425
2454.39	993.0129633
2454.59	993.0240842
2454.79	993.035205
2454.99	993.0463258
2455.19	993.0574467
2455.39	993.0685675
2455.59	993.0796884
2455.79	993.0908092
2455.99	993.10193
2456.19	993.1130509
2456.39	993.1241717
2456.59	993.1352925
2456.79	993.1464134
2456.99	993.1575342
2457.19	993.1686551
2457.39	993.1797759
2457.59	993.1908967
2457.79	993.2020176
2457.99	993.2131384
2458.19	993.2242592
2458.39	993.2353801
2458.59	993.2465009
2458.79	993.2576218
2458.99	993.2687426
2459.19	993.2798634
2459.39	993.2909843
2459.59	993.3021051
2459.79	993.313226
2459.99	993.3243468
2460.19	993.3354676
2460.39	993.3465885
2460.59	993.3577093
2460.79	993.3688301
2460.99	993.379951
2461.19	993.3910718
2461.39	993.4021927
2461.59	993.4133135
2461.79	993.4244343
2461.99	993.4355552
2462.19	993.446676
2462.39	993.4577968
2462.59	993.4689177
2462.79	993.4800385
2462.99	993.4911594
2463.19	993.5022802
2463.39	993.513401
2463.59	993.5245219
2463.79	993.5356427
2463.99	993.5467636
2464.19	993.5578844
2464.39	993.5690052
2464.59	993.5801261
2464.79	993.5912469
2464.99	993.6023677
2465.19	993.6134886
2465.39	993.6246094
2465.59	993.6357303
2465.79	993.6468511
2465.99	993.6579719
2466.19	993.6690928
2466.39	993.6802136
2466.59	993.6913345
2466.79	993.7024553
2466.99	993.7135761
2467.19	993.724697
2467.39	993.7358178
2467.59	993.7469386
2467.79	993.7580595
2467.99	993.7691803
2468.19	993.7803012
2468.39	993.791422
2468.59	993.8025428
2468.79	993.8136637
2468.99	993.8247845
2469.19	993.8359053
2469.39	993.8470262
2469.59	993.858147
2469.79	993.8692679
2469.99	993.8803887
2470.19	993.8915095
2470.39	993.9026304
2470.59	993.9137512
2470.79	993.9248721
2470.99	993.9359929
2471.19	993.9471137
2471.39	993.9582346
2471.59	993.9693554
2471.79	993.9804762
2471.99	993.9915971
2472.19	994.0027179
2472.39	994.0138388
2472.59	994.0249596
2472.79	994.0360804
2472.99	994.0472013
2473.19	994.0583221
2473.39	994.0694429
2473.59	994.0805638
2473.79	994.0916846
2473.99	994.1028055
2474.19	994.1139263
2474.39	994.1250471
2474.59	994.136168
2474.79	994.1472888
2474.99	994.1584097
2475.19	994.1695305
2475.39	994.1806513
2475.59	994.1917722
2475.79	994.202893
2475.99	994.2140138
2476.19	994.2251347
2476.39	994.2362555
2476.59	994.2473764
2476.79	994.2584972
2476.99	994.269618
2477.19	994.2807389
2477.39	994.2918597
2477.59	994.3029067
2477.79	994.3133564
2477.99	994.323806
2478.19	994.3342556
2478.39	994.3447053
2478.59	994.3551549
2478.79	994.3656046
2478.99	994.3760542
2479.19	994.3865038
2479.39	994.3969535
2479.59	994.4074031
2479.79	994.4178528
2479.99	994.4283024
2480.19	994.438752
2480.39	994.4492017
2480.59	994.4596513
2480.79	994.4701009
2480.99	994.4805506
2481.19	994.4910002
2481.39	994.5014499
2481.59	994.5118995
2481.79	994.5223491
2481.99	994.5327988
2482.19	994.5432484
2482.39	994.5536981
2482.59	994.5641477
2482.79	994.5745973
2482.99	994.585047
2483.19	994.5954966
2483.39	994.6059463
2483.59	994.6163959
2483.79	994.6268455
2483.99	994.6372952
2484.19	994.6477448
2484.39	994.6581945
2484.59	994.6686441
2484.79	994.6790937
2484.99	994.6895434
2485.19	994.699993
2485.39	994.7104427
2485.59	994.7208923
2485.79	994.7313419
2485.99	994.7417916
2486.19	994.7522412
2486.39	994.7626909
2486.59	994.7731405
2486.79	994.7835901
2486.99	994.7940398
2487.19	994.8044894
2487.39	994.8149391
2487.59	994.8253887
2487.79	994.8358383
2487.99	994.846288
2488.19	994.8567376
2488.39	994.8671873
2488.59	994.8776369
2488.79	994.8880865
2488.99	994.8985362
2489.19	994.9089858
2489.39	994.9194355
2489.59	994.9298851
2489.79	994.9403347
2489.99	994.9507844
2490.19	994.961234
2490.39	994.9716837
2490.59	994.9821333
2490.79	994.9925829
2490.99	995.0030326
2491.19	995.0134822
2491.39	995.0239319
2491.59	995.0343815
2491.79	995.0448311
2491.99	995.0552808
2492.19	995.0657304
2492.39	995.07618
2492.59	995.0866297
2492.79	995.0970793
2492.99	995.107529
2493.19	995.1179786
2493.39	995.1284283
2493.59	995.1388779
2493.79	995.1493275
2493.99	995.1597771
2494.19	995.1702268
2494.39	995.1806764
2494.59	995.1911261
2494.79	995.2015757
2494.99	995.2120254
2495.19	995.222475
2495.39	995.2329246
2495.59	995.2433743
2495.79	995.2538239
2495.99	995.2642736
2496.19	995.2747232
2496.39	995.2851728
2496.59	995.2956225
2496.79	995.3060721
2496.99	995.3165218
2497.19	995.3269714
2497.39	995.337421
2497.59	995.3478707
2497.79	995.3583203
2497.99	995.36877
2498.19	995.3792196
2498.39	995.3896692
2498.59	995.4001189
2498.79	995.4105685
2498.99	995.4210182
2499.19	995.4314678
2499.39	995.4419175
2499.59	995.4523671
2499.79	995.4628167
2499.99	995.4732664
2500.19	995.483716
2500.39	995.4941656
2500.59	995.5046153
2500.79	995.5150649
2500.99	995.5255145
2501.19	995.5359642
2501.39	995.5464138
2501.59	995.5568635
2501.79	995.5673131
2501.99	995.5777627
2502.19	995.5882124
2502.39	995.598662
2502.59	995.6091117
2502.79	995.6195613
2502.99	995.6300109
2503.19	995.6404606
2503.39	995.6509102
2503.59	995.6613599
2503.79	995.6718095
2503.99	995.6822592
2504.19	995.6927088
2504.39	995.7031584
2504.59	995.7136081
2504.79	995.7240577
2504.99	995.7345074
2505.19	995.744957
2505.39	995.7554066
2505.59	995.7658563
2505.79	995.7763059
2505.99	995.7867556
2506.19	995.7972052
2506.39	995.8076548
2506.59	995.8181044
2506.79	995.8285541
2506.99	995.8390037
2507.19	995.8494534
2507.39	995.859903
2507.59	995.8703526
2507.79	995.8808023
2507.99	995.8912519
2508.19	995.9017016
2508.39	995.9121512
2508.59	995.9226008
2508.79	995.9330505
2508.99	995.9435001
2509.19	995.9539498
2509.39	995.9643994
2509.59	995.9748491
2509.79	995.9849809
2509.99	995.9931191
2510.19	996.0012573
2510.39	996.0093955
2510.59	996.0175337
2510.79	996.0256719
2510.99	996.0338101
2511.19	996.0419483
2511.39	996.0500865
2511.59	996.0582247
2511.79	996.0663629
2511.99	996.0745011
2512.19	996.0826393
2512.39	996.0907775
2512.59	996.0989157
2512.79	996.1070539
2512.99	996.115192
2513.19	996.1233302
2513.39	996.1314684
2513.59	996.1396066
2513.79	996.1477448
2513.99	996.155883
2514.19	996.1640212
2514.39	996.1721594
2514.59	996.1802976
2514.79	996.1884358
2514.99	996.196574
2515.19	996.2047122
2515.39	996.2128504
2515.59	996.2209886
2515.79	996.2291268
2515.99	996.237265
2516.19	996.2454032
2516.39	996.2535414
2516.59	996.2616796
2516.79	996.2698178
2516.99	996.277956
2517.19	996.2860942
2517.39	996.2942324
2517.59	996.3023706
2517.79	996.3105088
2517.99	996.318647
2518.19	996.3267852
2518.39	996.3349234
2518.59	996.3430616
2518.79	996.3511998
2518.99	996.359338
2519.19	996.3674762
2519.39	996.3756144
2519.59	996.3837526
2519.79	996.3918908
2519.99	996.400029
2520.19	996.4081672
2520.39	996.4163054
2520.59	996.4244436
2520.79	996.4325818
2520.99	996.44072
2521.19	996.4488582
2521.39	996.4569964
2521.59	996.4651346
2521.79	996.4732728
2521.99	996.481411
2522.19	996.4895492
2522.39	996.4976874
2522.59	996.5058256
2522.79	996.5139638
2522.99	996.522102
2523.19	996.5302402
2523.39	996.5383784
2523.59	996.5465166
2523.79	996.5546548
2523.99	996.562793
2524.19	996.5709312
2524.39	996.5790694
2524.59	996.5872076
2524.79	996.5953458
2524.99	996.603484
2525.19	996.6116222
2525.39	996.6197603
2525.59	996.6278986
2525.79	996.6360368
2525.99	996.6441749
2526.19	996.6523131
2526.39	996.6604514
2526.59	996.6685896
2526.79	996.6767277
2526.99	996.6848659
2527.19	996.6930041
2527.39	996.7011423
2527.59	996.7092805
2527.79	996.7174187
2527.99	996.7255569
2528.19	996.7336951
2528.39	996.7418333
2528.59	996.7499715
2528.79	996.7581097
2528.99	996.7662479
2529.19	996.7743861
2529.39	996.7825243
2529.59	996.7906625
2529.79	996.7988007
2529.99	996.8069389
2530.19	996.8150771
2530.39	996.8232153
2530.59	996.8313535
2530.79	996.8394917
2530.99	996.8476299
2531.19	996.8557681
2531.39	996.8639063
2531.59	996.8720445
2531.79	996.8801827
2531.99	996.8883209
2532.19	996.8964591
2532.39	996.9045973
2532.59	996.9127355
2532.79	996.9208737
2532.99	996.9290119
2533.19	996.9371501
2533.39	996.9452883
2533.59	996.9534265
2533.79	996.9615647
2533.99	996.9697029
2534.19	996.9778411
2534.39	996.9859793
2534.59	996.9941175
2534.79	997.0022557
2534.99	997.0103939
2535.19	997.0185321
2535.39	997.0266703
2535.59	997.0348085
2535.79	997.0429467
2535.99	997.0510849
2536.19	997.0592231
2536.39	997.0673613
2536.59	997.0754995
2536.79	997.0836377
2536.99	997.0917759
2537.19	997.0999141
2537.39	997.1080523
2537.59	997.1161905
2537.79	997.1243287
2537.99	997.1324669
2538.19	997.1406051
2538.39	997.1487433
2538.59	997.1568815
2538.79	997.1650197
2538.99	997.1731579
2539.19	997.1812961
2539.39	997.1894343
2539.59	997.1975725
2539.79	997.2057107
2539.99	997.2138489
2540.19	997.2219871
2540.39	997.2301253
2540.59	997.2382635
2540.79	997.2464017
2540.99	997.2545399
2541.19	997.2626781
2541.39	997.2708163
2541.59	997.2789545
2541.79	997.2870927
2541.99	997.2952309
2542.19	997.3033691
2542.39	997.3115073
2542.59	997.3196455
2542.79	997.3277836
2542.99	997.3359218
2543.19	997.343705
2543.39	997.342525
2543.59	997.3413449
2543.79	997.3401649
2543.99	997.3389848
2544.19	997.3378047
2544.39	997.3366247
2544.59	997.3354446
2544.79	997.3342646
2544.99	997.3330845
2545.19	997.3319044
2545.39	997.3307244
2545.59	997.3295443
2545.79	997.3283643
2545.99	997.3271842
2546.19	997.3260041
2546.39	997.3248241
2546.59	997.323644
2546.79	997.322464
2546.99	997.3212839
2547.19	997.3201038
2547.39	997.3189238
2547.59	997.3177437
2547.79	997.3165636
2547.99	997.3153836
2548.19	997.3142035
2548.39	997.3130235
2548.59	997.3118434
2548.79	997.3106633
2548.99	997.3094833
2549.19	997.3083032
2549.39	997.3071232
2549.59	997.3059431
2549.79	997.304763
2549.99	997.303583
2550.19	997.3024029
2550.39	997.3012229
2550.59	997.3000428
2550.79	997.2988627
2550.99	997.2976827
2551.19	997.2963968
2551.39	997.2949789
2551.59	997.293561
2551.79	997.2921431
2551.99	997.2907252
2552.19	997.2893073
2552.39	997.2878894
2552.59	997.2864715
2552.79	997.2850536
2552.99	997.2836357
2553.19	997.2822178
2553.39	997.2807999
2553.59	997.279382
2553.79	997.2779641
2553.99	997.2765462
2554.19	997.2751283
2554.39	997.2737103
2554.59	997.2722924
2554.79	997.2708745
2554.99	997.2694566
2555.19	997.2680387
2555.39	997.2666208
2555.59	997.2652029
2555.79	997.263785
2555.99	997.2623671
2556.19	997.2609492
2556.39	997.2595313
2556.59	997.2581134
2556.79	997.2566955
2556.99	997.2552776
2557.19	997.2538597
2557.39	997.2524418
2557.59	997.2510239
2557.79	997.249606
2557.99	997.2481881
2558.19	997.2467702
2558.39	997.2453523
2558.59	997.2439344
2558.79	997.2425165
2558.99	997.2410986
2559.19	997.2396807
2559.39	997.2382628
2559.59	997.2368449
2559.79	997.235427
2559.99	997.2340091
2560.19	997.2325912
2560.39	997.2311733
2560.59	997.2297554
2560.79	997.2283375
2560.99	997.2269196
2561.19	997.2255017
2561.39	997.2240838
2561.59	997.2226659
2561.79	997.221248
2561.99	997.2198301
2562.19	997.2184122
2562.39	997.2169943
2562.59	997.2155764
2562.79	997.2141585
2562.99	997.2127406
2563.19	997.2113226
2563.39	997.2099047
2563.59	997.2084868
2563.79	997.2070689
2563.99	997.205651
2564.19	997.2042331
2564.39	997.2028152
2564.59	997.2013973
2564.79	997.1999794
2564.99	997.1985615
2565.19	997.1971436
2565.39	997.1957257
2565.59	997.1943078
2565.79	997.1928899
2565.99	997.191472
2566.19	997.1900541
2566.39	997.1886362
2566.59	997.1872183
2566.79	997.1858004
2566.99	997.1843825
2567.19	997.1829646
2567.39	997.1815467
2567.59	997.1801288
2567.79	997.1787109
2567.99	997.177293
2568.19	997.1758751
2568.39	997.1744572
2568.59	997.1730393
2568.79	997.1716214
2568.99	997.1702035
2569.19	997.1687856
2569.39	997.1673677
2569.59	997.1659498
2569.79	997.1645319
2569.99	997.163114
2570.19	997.1616961
2570.39	997.1602782
2570.59	997.1588603
2570.79	997.1574424
2570.99	997.1560245
2571.19	997.1546066
2571.39	997.1531887
2571.59	997.1517708
2571.79	997.1503528
2571.99	997.1489349
2572.19	997.147517
2572.39	997.1460991
2572.59	997.1446812
2572.79	997.1432633
2572.99	997.1418454
2573.19	997.1404275
2573.39	997.1390096
2573.59	997.1375917
2573.79	997.1361738
2573.99	997.1347559
2574.19	997.133338
2574.39	997.1319201
2574.59	997.1305022
2574.79	997.1290843
2574.99	997.1276664
2575.19	997.1262485
2575.39	997.1248306
2575.59	997.1234127
2575.79	997.1219948
2575.99	997.1205769
2576.19	997.119159
2576.39	997.1177411
2576.59	997.1163232
2576.79	997.1149053
2576.99	997.1134874
2577.19	997.1120695
2577.39	997.1106516
2577.59	997.1092337
2577.79	997.1078158
2577.99	997.1063979
2578.19	997.10498
2578.39	997.1035621
2578.59	997.1021442
2578.79	997.1007263
2578.99	997.0993084
2579.19	997.0978905
2579.39	997.0964726
2579.59	997.0950547
2579.79	997.0936368
2579.99	997.0922189
2580.19	997.090801
2580.39	997.0893831
2580.59	997.0879652
2580.79	997.0865473
2580.99	997.0851293
2581.19	997.0837114
2581.39	997.0822935
2581.59	997.0808756
2581.79	997.0794577
2581.99	997.0780398
2582.19	997.0766219
2582.39	997.075204
2582.59	997.0737861
2582.79	997.0723682
2582.99	997.0709503
2583.19	997.0695324
2583.39	997.0681145
2583.59	997.0666966
2583.79	997.0652787
2583.99	997.0638608
2584.19	997.0624429
2584.39	997.061025
2584.59	997.0596071
2584.79	997.0581892
2584.99	997.0567713
2585.19	997.0553534
2585.39	997.0539355
2585.59	997.0521718
2585.79	997.0499373
2585.99	997.0477028
2586.19	997.0454683
2586.39	997.0432338
2586.59	997.0409993
2586.79	997.0387648
2586.99	997.0365303
2587.19	997.0342958
2587.39	997.0320613
2587.59	997.0298268
2587.79	997.0275923
2587.99	997.0253578
2588.19	997.0231233
2588.39	997.0208888
2588.59	997.0186543
2588.79	997.0164198
2588.99	997.0141854
2589.19	997.0119509
2589.39	997.0097164
2589.59	997.0074819
2589.79	997.0052474
2589.99	997.0030129
2590.19	997.0007784
2590.39	996.9985439
2590.59	996.9963094
2590.79	996.9940749
2590.99	996.9918404
2591.19	996.9896059
2591.39	996.9873714
2591.59	996.9851369
2591.79	996.9829024
2591.99	996.9806679
2592.19	996.9784334
2592.39	996.9761989
2592.59	996.9739644
2592.79	996.9717299
2592.99	996.9694955
2593.19	996.967261
2593.39	996.9650265
2593.59	996.962792
2593.79	996.9605575
2593.99	996.958323
2594.19	996.9560885
2594.39	996.953854
2594.59	996.9516195
2594.79	996.949385
2594.99	996.9471505
2595.19	996.944916
2595.39	996.9426815
2595.59	996.940447
2595.79	996.9382125
2595.99	996.935978
2596.19	996.9337435
2596.39	996.931509
2596.59	996.9292745
2596.79	996.92704
2596.99	996.9248055
2597.19	996.9225711
2597.39	996.9203366
2597.59	996.9181021
2597.79	996.9158676
2597.99	996.9136331
2598.19	996.9113986
2598.39	996.9091641
2598.59	996.9069296
2598.79	996.9046951
2598.99	996.9024606
2599.19	996.9002261
2599.39	996.8979916
2599.59	996.8957571
2599.79	996.8935226
2599.99	996.8912881
2600.19	996.8890536
2600.39	996.8868191
2600.59	996.8845846
2600.79	996.8823501
2600.99	996.8801156
2601.19	996.8778812
2601.39	996.8756467
2601.59	996.8734122
2601.79	996.8711777
2601.99	996.8689432
2602.19	996.8667087
2602.39	996.8644742
2602.59	996.8622397
2602.79	996.8600052
2602.99	996.8577707
2603.19	996.8555362
2603.39	996.8533017
2603.59	996.8510672
2603.79	996.8488327
2603.99	996.8465982
2604.19	996.8443637
2604.39	996.8421292
2604.59	996.8398947
2604.79	996.8376602
2604.99	996.8354257
2605.19	996.8331912
2605.39	996.8309568
2605.59	996.8287223
2605.79	996.8264878
2605.99	996.8242533
2606.19	996.8220188
2606.39	996.8197843
2606.59	996.8175498
2606.79	996.8153153
2606.99	996.8130808
2607.19	996.8108463
2607.39	996.808619
2607.59	996.8064115
2607.79	996.8042039
2607.99	996.8019964
2608.19	996.7997889
2608.39	996.7975814
2608.59	996.7953738
2608.79	996.7931663
2608.99	996.7909588
2609.19	996.7887513
2609.39	996.7865437
2609.59	996.7843362
2609.79	996.7821287
2609.99	996.7799212
2610.19	996.7777136
2610.39	996.7755061
2610.59	996.7732986
2610.79	996.771091
2610.99	996.7688835
2611.19	996.766676
2611.39	996.7644685
2611.59	996.7622609
2611.79	996.7600534
2611.99	996.7578459
2612.19	996.7556384
2612.39	996.7534308
2612.59	996.7512233
2612.79	996.7490158
2612.99	996.7468082
2613.19	996.7446007
2613.39	996.7423932
2613.59	996.7401857
2613.79	996.7379781
2613.99	996.7357706
2614.19	996.7335631
2614.39	996.7313556
2614.59	996.729148
2614.79	996.7269405
2614.99	996.724733
2615.19	996.7225254
2615.39	996.7203179
2615.59	996.7181104
2615.79	996.7159029
