Profundidade [m]	Produtividade Primária [gC/m²/yr]
2424.99	148.1789965
2425.19	148.1784999
2425.39	148.1778864
2425.59	148.1772728
2425.79	148.1766594
2425.99	148.1760459
2426.19	148.1754324
2426.39	148.1748189
2426.59	148.1742055
2426.79	148.173592
2426.99	148.1729786
2427.19	148.1723651
2427.39	148.1717517
2427.59	148.1711383
2427.79	148.1705249
2427.99	148.1699115
2428.19	148.1692981
2428.39	148.1686848
2428.59	148.1680714
2428.79	148.167458
2428.99	148.1668447
2429.19	148.1662314
2429.39	148.165618
2429.59	148.1650047
2429.79	148.1643914
2429.99	148.1637781
2430.19	148.1631648
2430.39	148.1625516
2430.59	148.1619383
2430.79	148.161325
2430.99	148.1607118
2431.19	148.1600985
2431.39	148.1594853
2431.59	148.1588721
2431.79	148.1582589
2431.99	148.1576457
2432.19	148.1570325
2432.39	148.1564193
2432.59	148.1558061
2432.79	148.1551929
2432.99	148.1545798
2433.19	148.1539666
2433.39	148.1533535
2433.59	148.1527404
2433.79	148.1521273
2433.99	148.1515141
2434.19	148.150901
2434.39	148.1502879
2434.59	148.1496749
2434.79	148.1490618
2434.99	148.1484487
2435.19	148.1478357
2435.39	148.1472226
2435.59	148.1466096
2435.79	148.1459966
2435.99	148.1453836
2436.19	148.1447706
2436.39	148.1441576
2436.59	148.1435446
2436.79	148.1429316
2436.99	148.1423186
2437.19	148.1417057
2437.39	148.1410927
2437.59	148.1404798
2437.79	148.1398668
2437.99	148.1392539
2438.19	148.138641
2438.39	148.1380281
2438.59	148.1374152
2438.79	148.1368023
2438.99	148.1361895
2439.19	148.1355766
2439.39	148.1349637
2439.59	148.1343509
2439.79	148.1337381
2439.99	148.1331252
2440.19	148.1325124
2440.39	148.1318996
2440.59	148.1312868
2440.79	148.130674
2440.99	148.1300612
2441.19	148.1294485
2441.39	148.1288357
2441.59	148.1282229
2441.79	148.1276102
2441.99	148.1269975
2442.19	148.1263847
2442.39	148.125772
2442.59	148.1251593
2442.79	148.1245466
2442.99	148.1239339
2443.19	148.1233213
2443.39	148.1227086
2443.59	148.1220959
2443.79	148.1214833
2443.99	148.1208707
2444.19	148.120258
2444.39	148.1196454
2444.59	148.1190328
2444.79	148.1184202
2444.99	148.1178076
2445.19	148.117195
2445.39	148.1165824
2445.59	148.1159699
2445.79	148.1153573
2445.99	148.1147448
2446.19	148.1141322
2446.39	148.1135197
2446.59	148.1129072
2446.79	148.1122947
2446.99	148.1116822
2447.19	148.1110697
2447.39	148.1104572
2447.59	148.1098448
2447.79	148.1092323
2447.99	148.1086198
2448.19	148.1080074
2448.39	148.107395
2448.59	148.1067825
2448.79	148.1061701
2448.99	148.1055577
2449.19	148.1049453
2449.39	148.1043329
2449.59	148.1037206
2449.79	148.1031082
2449.99	148.1024958
2450.19	148.1018835
2450.39	148.1012712
2450.59	148.1006588
2450.79	148.1000465
2450.99	148.0994342
2451.19	148.0988219
2451.39	148.0982096
2451.59	148.0975973
2451.79	148.0969851
2451.99	148.0963728
2452.19	148.0957605
2452.39	148.0951483
2452.59	148.0945361
2452.79	148.0939238
2452.99	148.0933116
2453.19	148.0926994
2453.39	148.0920872
2453.59	148.091475
2453.79	148.0908628
2453.99	148.0902507
2454.19	148.0896385
2454.39	148.0890264
2454.59	148.0884142
2454.79	148.0878021
2454.99	148.08719
2455.19	148.0865778
2455.39	148.0859657
2455.59	148.0853536
2455.79	148.0847416
2455.99	148.0841295
2456.19	148.0835174
2456.39	148.0829054
2456.59	148.0822933
2456.79	148.0816813
2456.99	148.0810692
2457.19	148.0804572
2457.39	148.0798452
2457.59	148.0792332
2457.79	148.0786212
2457.99	148.0780092
2458.19	148.0773973
2458.39	148.0767853
2458.59	148.0761734
2458.79	148.0755614
2458.99	148.0749495
2459.19	148.0743376
2459.39	148.0737256
2459.59	148.0731137
2459.79	148.0725018
2459.99	148.0718899
2460.19	148.0712781
2460.39	148.0706662
2460.59	148.0700543
2460.79	148.0694425
2460.99	148.0688306
2461.19	148.0682188
2461.39	148.067607
2461.59	148.0669952
2461.79	148.0663834
2461.99	148.0657716
2462.19	148.0651598
2462.39	148.064548
2462.59	148.0639362
2462.79	148.0633245
2462.99	148.0627127
2463.19	148.062101
2463.39	148.0614893
2463.59	148.0608776
2463.79	148.0602658
2463.99	148.0596541
2464.19	148.0590425
2464.39	148.0584308
2464.59	148.0578191
2464.79	148.0572074
2464.99	148.0565958
2465.19	148.0559841
2465.39	148.0553725
2465.59	148.0547609
2465.79	148.0541493
2465.99	148.0535377
2466.19	148.0529261
2466.39	148.0523145
2466.59	148.0517029
2466.79	148.0510913
2466.99	148.0504798
2467.19	148.0498682
2467.39	148.0492567
2467.59	148.0486451
2467.79	148.0480336
2467.99	148.0474221
2468.19	148.0468106
2468.39	148.0461991
2468.59	148.0455876
2468.79	148.0449761
2468.99	148.0443647
2469.19	148.0437532
2469.39	148.0431418
2469.59	148.0425303
2469.79	148.0419189
2469.99	148.0413075
2470.19	148.0406961
2470.39	148.0400847
2470.59	148.0394733
2470.79	148.0388619
2470.99	148.0382505
2471.19	148.0376392
2471.39	148.0370278
2471.59	148.0364165
2471.79	148.0358051
2471.99	148.0351938
2472.19	148.0345825
2472.39	148.0339712
2472.59	148.0333599
2472.79	148.0327486
2472.99	148.0321373
2473.19	148.031526
2473.39	148.0309148
2473.59	148.0303035
2473.79	148.0296923
2473.99	148.0290811
2474.19	148.0284698
2474.39	148.0278586
2474.59	148.0272474
2474.79	148.0266362
2474.99	148.026025
2475.19	148.0254139
2475.39	148.0248027
2475.59	148.0241915
2475.79	148.0235804
2475.99	148.0229693
2476.19	148.0223581
2476.39	148.021747
2476.59	148.0211359
2476.79	148.0205248
2476.99	148.0199137
2477.19	148.0193026
2477.39	148.0186915
2477.59	148.0180845
2477.79	148.0175104
2477.99	148.0169362
2478.19	148.016362
2478.39	148.0157879
2478.59	148.0152137
2478.79	148.0146396
2478.99	148.0140655
2479.19	148.0134914
2479.39	148.0129173
2479.59	148.0123432
2479.79	148.0117691
2479.99	148.011195
2480.19	148.0106209
2480.39	148.0100468
2480.59	148.0094728
2480.79	148.0088987
2480.99	148.0083247
2481.19	148.0077507
2481.39	148.0071766
2481.59	148.0066026
2481.79	148.0060286
2481.99	148.0054546
2482.19	148.0048806
2482.39	148.0043066
2482.59	148.0037326
2482.79	148.0031587
2482.99	148.0025847
2483.19	148.0020108
2483.39	148.0014368
2483.59	148.0008629
2483.79	148.000289
2483.99	147.999715
2484.19	147.9991411
2484.39	147.9985672
2484.59	147.9979933
2484.79	147.9974195
2484.99	147.9968456
2485.19	147.9962717
2485.39	147.9956978
2485.59	147.995124
2485.79	147.9945502
2485.99	147.9939763
2486.19	147.9934025
2486.39	147.9928287
2486.59	147.9922549
2486.79	147.9916811
2486.99	147.9911073
2487.19	147.9905335
2487.39	147.9899597
2487.59	147.9893859
2487.79	147.9888122
2487.99	147.9882384
2488.19	147.9876647
2488.39	147.9870909
2488.59	147.9865172
2488.79	147.9859435
2488.99	147.9853698
2489.19	147.9847961
2489.39	147.9842224
2489.59	147.9836487
2489.79	147.983075
2489.99	147.9825013
2490.19	147.9819277
2490.39	147.981354
2490.59	147.9807804
2490.79	147.9802067
2490.99	147.9796331
2491.19	147.9790595
2491.39	147.9784859
2491.59	147.9779123
2491.79	147.9773387
2491.99	147.9767651
2492.19	147.9761915
2492.39	147.9756179
2492.59	147.9750444
2492.79	147.9744708
2492.99	147.9738973
2493.19	147.9733237
2493.39	147.9727502
2493.59	147.9721767
2493.79	147.9716031
2493.99	147.9710296
2494.19	147.9704561
2494.39	147.9698827
2494.59	147.9693092
2494.79	147.9687357
2494.99	147.9681622
2495.19	147.9675888
2495.39	147.9670153
2495.59	147.9664419
2495.79	147.9658685
2495.99	147.965295
2496.19	147.9647216
2496.39	147.9641482
2496.59	147.9635748
2496.79	147.9630014
2496.99	147.962428
2497.19	147.9618547
2497.39	147.9612813
2497.59	147.9607079
2497.79	147.9601346
2497.99	147.9595612
2498.19	147.9589879
2498.39	147.9584146
2498.59	147.9578413
2498.79	147.957268
2498.99	147.9566947
2499.19	147.9561214
2499.39	147.9555481
2499.59	147.9549748
2499.79	147.9544015
2499.99	147.9538283
2500.19	147.953255
2500.39	147.9526818
2500.59	147.9521086
2500.79	147.9515353
2500.99	147.9509621
2501.19	147.9503889
2501.39	147.9498157
2501.59	147.9492425
2501.79	147.9486693
2501.99	147.9480962
2502.19	147.947523
2502.39	147.9469498
2502.59	147.9463767
2502.79	147.9458035
2502.99	147.9452304
2503.19	147.9446573
2503.39	147.9440842
2503.59	147.943511
2503.79	147.9429379
2503.99	147.9423648
2504.19	147.9417918
2504.39	147.9412187
2504.59	147.9406456
2504.79	147.9400725
2504.99	147.9394995
2505.19	147.9389265
2505.39	147.9383534
2505.59	147.9377804
2505.79	147.9372074
2505.99	147.9366344
2506.19	147.9360614
2506.39	147.9354884
2506.59	147.9349154
2506.79	147.9343424
2506.99	147.9337694
2507.19	147.9331965
2507.39	147.9326235
2507.59	147.9320506
2507.79	147.9314776
2507.99	147.9309047
2508.19	147.9303318
2508.39	147.9297589
2508.59	147.929186
2508.79	147.9286131
2508.99	147.9280402
2509.19	147.9274673
2509.39	147.9268944
2509.59	147.9263216
2509.79	147.9257661
2509.99	147.92532
2510.19	147.9248739
2510.39	147.9244277
2510.59	147.9239816
2510.79	147.9235355
2510.99	147.9230894
2511.19	147.9226433
2511.39	147.9221972
2511.59	147.9217511
2511.79	147.921305
2511.99	147.9208589
2512.19	147.9204128
2512.39	147.9199668
2512.59	147.9195207
2512.79	147.9190746
2512.99	147.9186286
2513.19	147.9181825
2513.39	147.9177364
2513.59	147.9172904
2513.79	147.9168444
2513.99	147.9163983
2514.19	147.9159523
2514.39	147.9155063
2514.59	147.9150603
2514.79	147.9146142
2514.99	147.9141682
2515.19	147.9137222
2515.39	147.9132762
2515.59	147.9128302
2515.79	147.9123842
2515.99	147.9119382
2516.19	147.9114923
2516.39	147.9110463
2516.59	147.9106003
2516.79	147.9101544
2516.99	147.9097084
2517.19	147.9092624
2517.39	147.9088165
2517.59	147.9083705
2517.79	147.9079246
2517.99	147.9074787
2518.19	147.9070327
2518.39	147.9065868
2518.59	147.9061409
2518.79	147.905695
2518.99	147.9052491
2519.19	147.9048032
2519.39	147.9043573
2519.59	147.9039114
2519.79	147.9034655
2519.99	147.9030196
2520.19	147.9025737
2520.39	147.9021278
2520.59	147.901682
2520.79	147.9012361
2520.99	147.9007902
2521.19	147.9003444
2521.39	147.8998985
2521.59	147.8994527
2521.79	147.8990068
2521.99	147.898561
2522.19	147.8981152
2522.39	147.8976693
2522.59	147.8972235
2522.79	147.8967777
2522.99	147.8963319
2523.19	147.8958861
2523.39	147.8954403
2523.59	147.8949945
2523.79	147.8945487
2523.99	147.8941029
2524.19	147.8936571
2524.39	147.8932114
2524.59	147.8927656
2524.79	147.8923198
2524.99	147.8918741
2525.19	147.8914283
2525.39	147.8909825
2525.59	147.8905368
2525.79	147.8900911
2525.99	147.8896453
2526.19	147.8891996
2526.39	147.8887539
2526.59	147.8883081
2526.79	147.8878624
2526.99	147.8874167
2527.19	147.886971
2527.39	147.8865253
2527.59	147.8860796
2527.79	147.8856339
2527.99	147.8851882
2528.19	147.8847426
2528.39	147.8842969
2528.59	147.8838512
2528.79	147.8834055
2528.99	147.8829599
2529.19	147.8825142
2529.39	147.8820686
2529.59	147.8816229
2529.79	147.8811773
2529.99	147.8807316
2530.19	147.880286
2530.39	147.8798404
2530.59	147.8793948
2530.79	147.8789491
2530.99	147.8785035
2531.19	147.8780579
2531.39	147.8776123
2531.59	147.8771667
2531.79	147.8767211
2531.99	147.8762756
2532.19	147.87583
2532.39	147.8753844
2532.59	147.8749388
2532.79	147.8744933
2532.99	147.8740477
2533.19	147.8736021
2533.39	147.8731566
2533.59	147.872711
2533.79	147.8722655
2533.99	147.87182
2534.19	147.8713744
2534.39	147.8709289
2534.59	147.8704834
2534.79	147.8700379
2534.99	147.8695923
2535.19	147.8691468
2535.39	147.8687013
2535.59	147.8682558
2535.79	147.8678103
2535.99	147.8673649
2536.19	147.8669194
2536.39	147.8664739
2536.59	147.8660284
2536.79	147.865583
2536.99	147.8651375
2537.19	147.864692
2537.39	147.8642466
2537.59	147.8638011
2537.79	147.8633557
2537.99	147.8629103
2538.19	147.8624648
2538.39	147.8620194
2538.59	147.861574
2538.79	147.8611286
2538.99	147.8606831
2539.19	147.8602377
2539.39	147.8597923
2539.59	147.8593469
2539.79	147.8589015
2539.99	147.8584562
2540.19	147.8580108
2540.39	147.8575654
2540.59	147.85712
2540.79	147.8566747
2540.99	147.8562293
2541.19	147.8557839
2541.39	147.8553386
2541.59	147.8548932
2541.79	147.8544479
2541.99	147.8540026
2542.19	147.8535572
2542.39	147.8531119
2542.59	147.8526666
2542.79	147.8522213
2542.99	147.8517759
2543.19	147.8513501
2543.39	147.8514146
2543.59	147.8514792
2543.79	147.8515438
2543.99	147.8516083
2544.19	147.8516729
2544.39	147.8517375
2544.59	147.8518021
2544.79	147.8518666
2544.99	147.8519312
2545.19	147.8519958
2545.39	147.8520603
2545.59	147.8521249
2545.79	147.8521895
2545.99	147.8522541
2546.19	147.8523186
2546.39	147.8523832
2546.59	147.8524478
2546.79	147.8525123
2546.99	147.8525769
2547.19	147.8526415
2547.39	147.8527061
2547.59	147.8527706
2547.79	147.8528352
2547.99	147.8528998
2548.19	147.8529644
2548.39	147.8530289
2548.59	147.8530935
2548.79	147.8531581
2548.99	147.8532226
2549.19	147.8532872
2549.39	147.8533518
2549.59	147.8534164
2549.79	147.8534809
2549.99	147.8535455
2550.19	147.8536101
2550.39	147.8536747
2550.59	147.8537392
2550.79	147.8538038
2550.99	147.8538684
2551.19	147.8539388
2551.39	147.8540163
2551.59	147.8540939
2551.79	147.8541715
2551.99	147.8542491
2552.19	147.8543267
2552.39	147.8544043
2552.59	147.8544819
2552.79	147.8545595
2552.99	147.8546371
2553.19	147.8547147
2553.39	147.8547922
2553.59	147.8548698
2553.79	147.8549474
2553.99	147.855025
2554.19	147.8551026
2554.39	147.8551802
2554.59	147.8552578
2554.79	147.8553354
2554.99	147.855413
2555.19	147.8554906
2555.39	147.8555682
2555.59	147.8556458
2555.79	147.8557234
2555.99	147.855801
2556.19	147.8558785
2556.39	147.8559561
2556.59	147.8560337
2556.79	147.8561113
2556.99	147.8561889
2557.19	147.8562665
2557.39	147.8563441
2557.59	147.8564217
2557.79	147.8564993
2557.99	147.8565769
2558.19	147.8566545
2558.39	147.8567321
2558.59	147.8568097
2558.79	147.8568873
2558.99	147.8569649
2559.19	147.8570425
2559.39	147.8571201
2559.59	147.8571977
2559.79	147.8572753
2559.99	147.8573528
2560.19	147.8574304
2560.39	147.857508
2560.59	147.8575856
2560.79	147.8576632
2560.99	147.8577408
2561.19	147.8578184
2561.39	147.857896
2561.59	147.8579736
2561.79	147.8580512
2561.99	147.8581288
2562.19	147.8582064
2562.39	147.858284
2562.59	147.8583616
2562.79	147.8584392
2562.99	147.8585168
2563.19	147.8585944
2563.39	147.858672
2563.59	147.8587496
2563.79	147.8588272
2563.99	147.8589048
2564.19	147.8589824
2564.39	147.85906
2564.59	147.8591376
2564.79	147.8592152
2564.99	147.8592928
2565.19	147.8593704
2565.39	147.859448
2565.59	147.8595256
2565.79	147.8596032
2565.99	147.8596808
2566.19	147.8597584
2566.39	147.859836
2566.59	147.8599136
2566.79	147.8599912
2566.99	147.8600688
2567.19	147.8601464
2567.39	147.860224
2567.59	147.8603016
2567.79	147.8603792
2567.99	147.8604568
2568.19	147.8605344
2568.39	147.860612
2568.59	147.8606896
2568.79	147.8607672
2568.99	147.8608448
2569.19	147.8609224
2569.39	147.861
2569.59	147.8610777
2569.79	147.8611553
2569.99	147.8612329
2570.19	147.8613105
2570.39	147.8613881
2570.59	147.8614657
2570.79	147.8615433
2570.99	147.8616209
2571.19	147.8616985
2571.39	147.8617761
2571.59	147.8618537
2571.79	147.8619313
2571.99	147.8620089
2572.19	147.8620865
2572.39	147.8621641
2572.59	147.8622417
2572.79	147.8623193
2572.99	147.8623969
2573.19	147.8624745
2573.39	147.8625522
2573.59	147.8626298
2573.79	147.8627074
2573.99	147.862785
2574.19	147.8628626
2574.39	147.8629402
2574.59	147.8630178
2574.79	147.8630954
2574.99	147.863173
2575.19	147.8632506
2575.39	147.8633282
2575.59	147.8634058
2575.79	147.8634834
2575.99	147.863561
2576.19	147.8636387
2576.39	147.8637163
2576.59	147.8637939
2576.79	147.8638715
2576.99	147.8639491
2577.19	147.8640267
2577.39	147.8641043
2577.59	147.8641819
2577.79	147.8642595
2577.99	147.8643371
2578.19	147.8644148
2578.39	147.8644924
2578.59	147.86457
2578.79	147.8646476
2578.99	147.8647252
2579.19	147.8648028
2579.39	147.8648804
2579.59	147.864958
2579.79	147.8650356
2579.99	147.8651132
2580.19	147.8651909
2580.39	147.8652685
2580.59	147.8653461
2580.79	147.8654237
2580.99	147.8655013
2581.19	147.8655789
2581.39	147.8656565
2581.59	147.8657341
2581.79	147.8658118
2581.99	147.8658894
2582.19	147.865967
2582.39	147.8660446
2582.59	147.8661222
2582.79	147.8661998
2582.99	147.8662774
2583.19	147.8663551
2583.39	147.8664327
2583.59	147.8665103
2583.79	147.8665879
2583.99	147.8666655
2584.19	147.8667431
2584.39	147.8668207
2584.59	147.8668984
2584.79	147.866976
2584.99	147.8670536
2585.19	147.8671312
2585.39	147.8672088
2585.59	147.8673054
2585.79	147.8674277
2585.99	147.86755
2586.19	147.8676723
2586.39	147.8677946
2586.59	147.8679169
2586.79	147.8680393
2586.99	147.8681616
2587.19	147.8682839
2587.39	147.8684062
2587.59	147.8685285
2587.79	147.8686509
2587.99	147.8687732
2588.19	147.8688955
2588.39	147.8690178
2588.59	147.8691401
2588.79	147.8692625
2588.99	147.8693848
2589.19	147.8695071
2589.39	147.8696294
2589.59	147.8697518
2589.79	147.8698741
2589.99	147.8699964
2590.19	147.8701187
2590.39	147.8702411
2590.59	147.8703634
2590.79	147.8704857
2590.99	147.870608
2591.19	147.8707304
2591.39	147.8708527
2591.59	147.870975
2591.79	147.8710973
2591.99	147.8712197
2592.19	147.871342
2592.39	147.8714643
2592.59	147.8715867
2592.79	147.871709
2592.99	147.8718313
2593.19	147.8719536
2593.39	147.872076
2593.59	147.8721983
2593.79	147.8723206
2593.99	147.872443
2594.19	147.8725653
2594.39	147.8726876
2594.59	147.87281
2594.79	147.8729323
2594.99	147.8730546
2595.19	147.873177
2595.39	147.8732993
2595.59	147.8734216
2595.79	147.873544
2595.99	147.8736663
2596.19	147.8737886
2596.39	147.873911
2596.59	147.8740333
2596.79	147.8741556
2596.99	147.874278
2597.19	147.8744003
2597.39	147.8745227
2597.59	147.874645
2597.79	147.8747673
2597.99	147.8748897
2598.19	147.875012
2598.39	147.8751344
2598.59	147.8752567
2598.79	147.875379
2598.99	147.8755014
2599.19	147.8756237
2599.39	147.8757461
2599.59	147.8758684
2599.79	147.8759907
2599.99	147.8761131
2600.19	147.8762354
2600.39	147.8763578
2600.59	147.8764801
2600.79	147.8766025
2600.99	147.8767248
2601.19	147.8768472
2601.39	147.8769695
2601.59	147.8770918
2601.79	147.8772142
2601.99	147.8773365
2602.19	147.8774589
2602.39	147.8775812
2602.59	147.8777036
2602.79	147.8778259
2602.99	147.8779483
2603.19	147.8780706
2603.39	147.878193
2603.59	147.8783153
2603.79	147.8784377
2603.99	147.87856
2604.19	147.8786824
2604.39	147.8788047
2604.59	147.8789271
2604.79	147.8790494
2604.99	147.8791718
2605.19	147.8792941
2605.39	147.8794165
2605.59	147.8795388
2605.79	147.8796612
2605.99	147.8797835
2606.19	147.8799059
2606.39	147.8800283
2606.59	147.8801506
2606.79	147.880273
2606.99	147.8803953
2607.19	147.8805177
2607.39	147.8806396
2607.59	147.8807605
2607.79	147.8808814
2607.99	147.8810023
2608.19	147.8811232
2608.39	147.8812441
2608.59	147.8813649
2608.79	147.8814858
2608.99	147.8816067
2609.19	147.8817276
2609.39	147.8818485
2609.59	147.8819693
2609.79	147.8820902
2609.99	147.8822111
2610.19	147.882332
2610.39	147.8824529
2610.59	147.8825738
2610.79	147.8826947
2610.99	147.8828155
2611.19	147.8829364
2611.39	147.8830573
2611.59	147.8831782
2611.79	147.8832991
2611.99	147.88342
2612.19	147.8835409
2612.39	147.8836618
2612.59	147.8837827
2612.79	147.8839035
2612.99	147.8840244
2613.19	147.8841453
2613.39	147.8842662
2613.59	147.8843871
2613.79	147.884508
2613.99	147.8846289
2614.19	147.8847498
2614.39	147.8848707
2614.59	147.8849916
2614.79	147.8851125
2614.99	147.8852334
2615.19	147.8853543
2615.39	147.8854751
2615.59	147.885596
